height,pressure,temp,tdew
m,hPa,K,K
30.50,1034.20,286.74,280.31
45.40,1032.37,286.69,279.65
56.30,1031.03,286.56,279.36
66.40,1029.80,286.44,279.16
76.20,1028.60,286.35,279.20
86.60,1027.33,286.26,279.28
96.30,1026.14,286.17,279.15
104.60,1025.14,286.07,279.02
113.00,1024.11,285.97,278.99
121.60,1023.07,285.87,278.91
131.40,1021.87,285.77,278.91
142.10,1020.56,285.67,278.92
152.70,1019.28,285.56,278.95
163.40,1017.97,285.47,278.98
173.90,1016.70,285.37,278.96
183.40,1015.55,285.29,278.96
193.30,1014.35,285.18,278.85
204.00,1013.06,285.06,278.71
214.60,1011.77,284.94,278.66
224.20,1010.62,284.83,278.66
234.20,1009.41,284.73,278.63
244.20,1008.20,284.63,278.62
253.90,1007.03,284.54,278.66
263.70,1005.84,284.45,278.64
274.10,1004.59,284.35,278.64
284.60,1003.34,284.24,278.66
294.60,1002.14,284.14,278.68
304.70,1000.92,284.04,278.71
314.30,999.77,283.94,278.77
323.90,998.62,283.84,278.81
334.20,997.39,283.75,278.70
345.00,996.09,283.67,278.56
356.20,994.76,283.56,278.62
367.50,993.41,283.42,278.73
378.00,992.15,283.33,278.68
389.20,990.82,283.23,278.59
401.10,989.41,283.11,278.56
412.40,988.07,282.99,278.59
423.60,986.73,282.89,278.55
435.50,985.32,282.79,278.50
447.80,983.86,282.66,278.48
460.10,982.41,282.53,278.49
472.40,980.95,282.42,278.48
483.70,979.61,282.30,278.48
494.90,978.29,282.19,278.44
506.40,976.94,282.08,278.37
518.50,975.51,281.98,278.31
530.50,974.10,281.87,278.28
542.50,972.69,281.75,278.26
554.90,971.22,281.62,278.24
566.90,969.82,281.50,278.24
578.10,968.51,281.39,278.25
589.30,967.19,281.28,278.24
600.60,965.87,281.16,278.25
611.40,964.61,281.04,278.21
621.50,963.43,280.94,278.18
631.70,962.23,280.85,278.19
641.90,961.05,280.75,278.17
652.50,959.81,280.66,278.10
663.90,958.48,280.56,278.06
675.40,957.15,280.45,278.03
687.50,955.74,280.33,277.98
700.60,954.23,280.21,277.94
713.30,952.75,280.08,277.90
725.60,951.34,279.96,277.88
737.70,949.93,279.83,277.85
748.40,948.70,279.72,277.82
758.80,947.50,279.62,277.82
770.10,946.20,279.51,277.82
781.20,944.92,279.41,277.83
792.90,943.57,279.30,277.84
803.30,942.37,279.21,277.82
813.00,941.26,279.10,277.77
823.30,940.08,279.00,277.73
833.60,938.90,278.90,277.70
843.70,937.73,278.81,277.62
853.60,936.60,278.75,277.32
863.10,935.52,278.71,277.05
873.30,934.35,278.63,277.10
883.50,933.19,278.52,277.18
893.20,932.09,278.50,277.00
902.50,931.02,278.55,276.73
912.00,929.95,278.55,276.58
921.60,928.86,278.45,276.54
931.00,927.78,278.30,276.53
940.30,926.73,278.18,276.51
950.50,925.57,278.08,276.45
961.30,924.35,278.02,276.35
972.40,923.09,277.98,276.29
984.60,921.71,277.92,276.22
995.80,920.45,277.83,276.14
1005.80,919.32,277.71,276.12
1015.40,918.24,277.60,276.14
1025.00,917.16,277.51,276.13
1034.60,916.08,277.41,276.14
1043.60,915.07,277.31,276.14
1052.00,914.12,277.21,276.18
1060.60,913.16,277.09,276.23
1069.30,912.19,277.00,276.22
1077.30,911.28,276.91,276.24
1085.50,910.36,276.84,276.24
1094.80,909.33,276.77,276.26
1103.30,908.37,276.68,276.30
1112.10,907.39,276.60,276.23
1120.60,906.44,276.53,276.20
1129.50,905.45,276.47,276.22
1138.70,904.43,276.41,276.21
1147.60,903.43,276.34,276.17
1156.50,902.44,276.28,276.13
1166.30,901.36,276.22,276.08
1175.40,900.35,276.16,276.00
1184.70,899.31,276.09,275.93
1194.70,898.20,276.02,275.87
1204.20,897.15,275.94,275.80
1213.40,896.13,275.89,275.77
1222.40,895.14,275.84,275.74
1231.10,894.18,275.79,275.68
1239.80,893.21,275.73,275.62
1248.90,892.22,275.67,275.55
1258.40,891.17,275.60,275.50
1268.50,890.05,275.51,275.41
1278.20,888.99,275.43,275.33
1288.40,887.87,275.41,275.35
1298.50,886.76,275.36,275.30
1308.60,885.65,275.27,275.19
1318.90,884.52,275.22,275.17
1328.90,883.43,275.20,275.16
1339.70,882.25,275.16,275.12
1350.50,881.07,275.11,275.07
1361.50,879.87,275.05,275.01
1371.90,878.74,274.96,274.90
1381.70,877.68,274.84,274.76
1391.30,876.63,274.75,274.68
1401.40,875.54,274.69,274.64
1411.20,874.47,274.61,274.53
1420.80,873.43,274.51,274.43
1431.10,872.31,274.45,274.39
1442.40,871.09,274.42,274.38
1452.60,869.98,274.37,274.34
1462.80,868.89,274.32,274.30
1473.50,867.73,274.26,274.23
1484.80,866.52,274.17,274.13
1496.00,865.30,274.12,274.08
1507.20,864.10,274.10,274.04
1518.20,862.92,274.03,273.92
1527.40,861.94,273.96,273.86
1535.80,861.04,273.91,273.84
1545.10,860.05,273.84,273.77
1555.70,858.91,273.69,273.57
1567.40,857.66,273.58,273.41
1579.70,856.34,273.55,273.18
1592.50,854.99,273.81,272.26
1605.30,853.63,275.09,270.51
1618.40,852.25,277.02,267.89
1630.90,850.93,278.24,262.74
1643.40,849.63,278.59,256.79
1655.20,848.41,278.59,256.72
1667.20,847.17,278.73,255.16
1680.50,845.79,278.93,254.10
1694.10,844.38,279.12,255.32
1706.10,843.14,279.31,256.63
1717.50,841.96,279.49,257.47
1729.40,840.74,279.70,257.68
1741.40,839.51,279.89,258.07
1753.00,838.33,280.07,258.73
1763.50,837.26,280.19,258.90
1773.90,836.19,280.27,258.35
1785.40,835.02,280.34,257.72
1798.20,833.73,280.37,257.34
1810.80,832.44,280.36,256.98
1822.60,831.25,280.39,256.73
1834.50,830.05,280.42,256.45
1845.20,828.96,280.40,256.49
1856.50,827.83,280.34,256.69
1868.30,826.64,280.24,256.79
1879.90,825.47,280.14,256.88
1892.30,824.22,280.06,257.05
1906.10,822.84,279.96,257.13
1919.40,821.51,279.86,257.07
1931.40,820.31,279.84,257.13
1941.50,819.30,279.87,257.28
1952.80,818.17,279.90,257.35
1966.20,816.83,279.90,257.28
1978.80,815.58,279.88,257.15
1990.90,814.37,279.83,257.00
2003.20,813.16,279.77,257.02
2015.60,811.92,279.70,257.09
2027.70,810.72,279.64,257.31
2039.50,809.56,279.57,257.42
2052.10,808.32,279.50,257.34
2064.10,807.13,279.49,257.23
2075.20,806.04,279.51,257.04
2085.90,804.98,279.56,256.87
2098.10,803.79,279.59,256.71
2110.10,802.61,279.60,256.60
2122.60,801.38,279.61,256.53
2135.40,800.13,279.62,256.40
2147.10,798.99,279.60,256.27
2159.10,797.82,279.56,256.28
2171.70,796.59,279.54,256.39
2184.10,795.39,279.54,256.36
2197.30,794.11,279.56,256.16
2209.60,792.92,279.56,255.92
2221.00,791.81,279.55,255.76
2232.80,790.67,279.57,255.63
2245.10,789.49,279.58,255.52
2257.10,788.34,279.53,255.42
2268.20,787.26,279.51,255.30
2279.80,786.15,279.47,255.15
2292.50,784.93,279.40,255.04
2305.30,783.70,279.31,254.99
2317.70,782.52,279.21,254.98
2329.00,781.44,279.11,254.97
2340.40,780.35,279.04,254.90
2353.30,779.12,278.98,254.70
2365.50,777.95,278.91,254.50
2377.40,776.82,278.84,254.43
2389.30,775.69,278.78,254.39
2400.80,774.60,278.73,254.39
2413.10,773.43,278.69,254.40
2426.20,772.19,278.69,254.34
2438.10,771.07,278.68,254.21
2449.20,770.02,278.65,254.08
2460.40,768.96,278.62,253.96
2473.00,767.77,278.59,253.83
2486.00,766.55,278.56,253.66
2496.80,765.54,278.52,253.52
2506.30,764.65,278.47,253.42
2517.80,763.57,278.43,253.30
2530.00,762.43,278.42,253.05
2541.70,761.34,278.42,252.74
2553.40,760.24,278.41,252.55
2564.60,759.21,278.39,252.53
2574.80,758.26,278.35,252.48
2586.00,757.21,278.27,252.36
2597.80,756.12,278.20,252.23
2610.30,754.96,278.14,252.12
2622.10,753.86,278.11,252.01
2633.20,752.84,278.10,251.87
2645.20,751.73,278.07,251.66
2656.90,750.66,278.04,251.50
2667.60,749.66,277.99,251.41
2679.20,748.59,277.92,251.36
2691.60,747.46,277.84,251.32
2702.90,746.42,277.78,251.28
2712.90,745.51,277.75,251.24
2723.30,744.55,277.71,251.22
2735.70,743.42,277.61,251.19
2748.70,742.23,277.52,251.25
2761.20,741.09,277.49,251.38
2773.80,739.94,277.44,251.43
2785.70,738.86,277.36,251.49
2798.00,737.74,277.27,251.60
2810.50,736.60,277.16,251.72
2822.30,735.54,277.06,251.87
2833.80,734.49,276.95,252.10
2845.80,733.41,276.85,252.40
2858.30,732.27,276.76,252.53
2871.60,731.07,276.68,252.57
2883.90,729.97,276.58,252.53
2893.60,729.09,276.49,252.49
2903.10,728.24,276.44,252.53
2913.60,727.30,276.37,252.61
2924.30,726.34,276.26,252.66
2934.10,725.45,276.19,252.67
2944.80,724.50,276.11,252.64
2955.50,723.54,276.05,252.61
2967.30,722.48,275.97,252.56
2978.60,721.47,275.88,252.49
2989.10,720.53,275.79,252.43
3000.40,719.53,275.70,252.41
3011.50,718.54,275.61,252.44
3023.20,717.50,275.52,252.47
3034.80,716.47,275.42,252.54
3047.40,715.35,275.32,252.61
3058.40,714.37,275.24,252.65
3069.00,713.44,275.17,252.70
3080.50,712.41,275.10,252.73
3091.20,711.47,275.04,252.74
3100.60,710.64,274.98,252.79
3111.60,709.67,274.92,252.92
3123.40,708.63,274.89,253.26
3135.00,707.61,274.86,253.91
3146.70,706.59,274.82,254.43
3159.00,705.51,274.74,254.49
3171.90,704.38,274.64,254.36
3184.20,703.30,274.57,254.24
3196.00,702.27,274.48,254.13
3207.60,701.26,274.37,254.01
3218.70,700.29,274.27,253.91
3230.10,699.30,274.16,253.84
3240.60,698.39,274.07,253.77
3250.40,697.53,273.98,253.66
3261.70,696.55,273.90,253.49
3273.70,695.51,273.84,252.83
3285.50,694.49,273.87,250.74
3296.30,693.55,274.01,247.31
3306.50,692.67,274.10,245.54
3316.70,691.79,274.14,245.12
3328.10,690.81,274.14,244.65
3339.90,689.79,274.10,244.57
3351.50,688.79,274.04,244.65
3362.90,687.82,274.00,244.80
3373.80,686.88,273.98,245.34
3385.40,685.89,273.93,246.52
3397.50,684.86,273.82,247.39
3407.50,684.01,273.75,247.61
3417.20,683.18,273.70,247.57
3428.40,682.22,273.62,247.48
3440.20,681.22,273.57,247.34
3452.50,680.17,273.52,247.06
3463.00,679.28,273.47,246.77
3473.40,678.40,273.40,246.56
3486.20,677.32,273.36,246.24
3498.70,676.26,273.35,245.88
3510.30,675.28,273.31,245.72
3520.90,674.39,273.27,245.65
3531.90,673.46,273.23,245.47
3543.70,672.47,273.17,245.26
3556.10,671.43,273.12,245.04
3569.00,670.34,273.06,244.78
3581.20,669.32,273.02,244.54
3592.00,668.42,272.99,244.39
3602.10,667.57,272.96,244.24
3613.40,666.63,272.94,243.97
3625.30,665.64,272.90,243.67
3636.10,664.74,272.86,243.58
3646.70,663.86,272.79,243.64
3657.60,662.96,272.70,243.67
3668.70,662.04,272.61,243.76
3680.90,661.02,272.54,244.01
3694.40,659.90,272.47,244.30
3707.90,658.79,272.39,244.26
3720.70,657.73,272.30,243.87
3733.60,656.67,272.18,243.51
3746.20,655.63,272.07,243.33
3757.80,654.67,271.98,243.24
3770.00,653.67,271.90,243.19
3782.50,652.65,271.82,243.07
3795.00,651.62,271.71,242.99
3807.10,650.63,271.61,243.24
3819.30,649.63,271.52,243.79
3832.40,648.57,271.42,244.23
3844.50,647.58,271.31,244.37
3855.20,646.71,271.22,244.39
3866.50,645.79,271.12,244.41
3879.70,644.71,271.00,244.48
3893.40,643.60,270.88,244.62
3906.40,642.55,270.76,244.70
3918.50,641.57,270.66,244.74
3931.20,640.54,270.54,244.73
3944.80,639.45,270.40,244.71
3958.10,638.37,270.26,244.83
3969.30,637.47,270.15,245.07
3977.70,636.79,270.08,245.31
3985.20,636.19,270.02,245.53
3994.10,635.47,269.94,245.68
4005.20,634.58,269.83,245.74
4017.20,633.62,269.71,245.80
4029.90,632.59,269.61,245.83
4042.60,631.58,269.49,245.75
4054.90,630.59,269.42,245.41
4067.60,629.58,269.36,244.78
4080.10,628.58,269.29,244.14
4091.70,627.66,269.21,243.85
4103.00,626.76,269.12,243.84
4115.00,625.81,269.02,243.82
4128.50,624.74,268.90,243.61
4141.20,623.73,268.79,243.38
4152.30,622.85,268.70,243.37
4163.20,621.99,268.59,243.54
4174.40,621.10,268.49,243.90
4185.00,620.27,268.42,244.29
4195.60,619.42,268.33,244.82
4207.10,618.52,268.23,245.13
4219.80,617.52,268.14,245.20
4232.60,616.52,268.03,245.21
4244.10,615.61,267.92,245.13
4256.10,614.67,267.79,244.99
4268.00,613.74,267.69,244.84
4280.30,612.78,267.60,244.71
4294.40,611.68,267.47,244.81
4308.60,610.57,267.35,245.23
4321.20,609.59,267.24,245.44
4333.80,608.60,267.12,245.10
4346.20,607.64,267.00,244.73
4359.10,606.64,266.89,244.40
4372.20,605.62,266.77,243.82
4384.80,604.65,266.67,242.88
4397.30,603.68,266.58,241.51
4409.10,602.76,266.50,240.45
4420.80,601.87,266.43,239.79
4434.40,600.81,266.35,239.32
4448.80,599.71,266.26,239.20
4462.00,598.69,266.18,239.29
4475.30,597.67,266.08,239.60
4489.00,596.62,265.96,240.25
4501.20,595.68,265.85,240.55
4513.10,594.78,265.75,240.94
4525.70,593.81,265.64,241.64
4538.50,592.84,265.54,241.77
4550.40,591.93,265.47,241.16
4562.50,591.01,265.39,240.81
4574.20,590.12,265.28,241.68
4586.70,589.17,265.17,242.19
4599.80,588.18,265.06,242.25
4612.20,587.24,264.96,242.65
4624.50,586.31,264.86,242.93
4638.20,585.27,264.73,243.04
4651.20,584.29,264.59,243.13
4663.10,583.40,264.49,243.17
4675.90,582.43,264.39,243.03
4690.30,581.35,264.29,242.76
4704.80,580.26,264.17,242.77
4717.30,579.33,264.07,242.78
4729.50,578.41,263.98,242.81
4742.40,577.45,263.87,243.01
4755.70,576.45,263.77,243.18
4767.70,575.56,263.67,243.26
4778.70,574.74,263.61,243.23
4791.60,573.78,263.52,243.08
4804.30,572.84,263.46,242.85
4816.40,571.93,263.39,242.72
4830.20,570.91,263.28,242.67
4842.40,570.01,263.18,242.65
4851.10,569.37,263.11,242.61
4860.30,568.69,263.04,242.60
4870.90,567.90,262.98,242.61
4882.80,567.03,262.91,242.57
4895.20,566.11,262.80,242.44
4906.40,565.29,262.70,242.31
4917.00,564.52,262.61,242.18
4929.30,563.61,262.52,241.98
4942.00,562.68,262.45,241.69
4953.90,561.81,262.42,241.50
4964.90,561.00,262.40,241.48
4976.90,560.13,262.34,241.55
4990.90,559.11,262.23,241.58
5005.10,558.07,262.14,241.48
5018.60,557.10,262.03,241.34
5032.80,556.06,261.90,241.23
5044.90,555.19,261.77,241.18
5054.90,554.46,261.69,241.18
5066.90,553.60,261.58,241.19
5081.60,552.54,261.42,241.21
5095.40,551.54,261.29,241.21
5108.00,550.63,261.18,241.19
5120.00,549.77,261.04,241.15
5129.90,549.06,260.94,241.13
5140.20,548.32,260.85,241.10
5151.90,547.48,260.74,241.07
5164.70,546.56,260.63,241.02
5176.70,545.70,260.52,240.93
5188.40,544.87,260.42,240.88
5200.70,543.99,260.30,240.81
5214.00,543.04,260.18,240.71
5229.20,541.96,260.05,240.63
5243.60,540.93,259.92,240.56
5255.60,540.08,259.79,240.50
5267.60,539.23,259.66,240.40
5280.80,538.29,259.54,240.29
5293.10,537.42,259.44,240.14
5303.00,536.72,259.35,239.94
5312.10,536.08,259.27,239.68
5321.60,535.41,259.21,239.29
5332.90,534.61,259.20,238.72
5347.00,533.62,259.22,237.79
5359.80,532.72,259.28,236.79
5369.30,532.05,259.29,236.17
5378.40,531.42,259.25,235.77
5387.20,530.80,259.21,235.52
5397.00,530.12,259.22,235.18
5409.10,529.27,259.28,234.53
5422.60,528.33,259.35,233.62
5436.60,527.36,259.35,232.88
5448.50,526.53,259.30,232.48
5457.30,525.92,259.24,232.13
5465.40,525.36,259.20,231.90
5475.40,524.67,259.17,231.70
5488.20,523.78,259.12,231.47
5504.30,522.67,259.05,231.22
5519.50,521.63,258.99,230.93
5532.50,520.74,258.95,230.56
5546.30,519.79,258.90,229.77
5559.20,518.90,258.85,228.85
5571.00,518.09,258.81,228.10
5583.30,517.25,258.75,227.41
5595.50,516.42,258.69,226.88
5608.00,515.57,258.61,226.59
5621.60,514.64,258.51,226.37
5635.00,513.73,258.41,226.15
5648.10,512.85,258.33,225.97
5660.80,511.98,258.29,225.65
5672.80,511.17,258.29,225.25
5685.20,510.33,258.24,225.04
5698.30,509.45,258.17,225.02
5711.90,508.53,258.11,225.13
5726.40,507.56,258.04,225.27
5740.80,506.59,257.96,225.35
5753.90,505.71,257.88,225.36
5766.80,504.85,257.82,225.31
5780.70,503.92,257.73,225.27
5793.20,503.09,257.62,225.26
5802.30,502.48,257.54,225.28
5810.10,501.96,257.48,225.25
5818.30,501.41,257.42,225.19
5827.30,500.82,257.41,225.18
5836.90,500.18,257.38,225.11
5848.70,499.39,257.35,224.88
5862.30,498.50,257.30,224.62
5876.00,497.59,257.21,224.36
5889.50,496.70,257.17,224.07
5901.30,495.92,257.15,223.83
5913.00,495.15,257.16,223.66
5926.40,494.27,257.18,223.39
5938.40,493.48,257.18,223.17
5947.90,492.86,257.16,223.06
5957.80,492.21,257.11,222.90
5966.90,491.62,257.11,222.75
5976.10,491.02,257.09,222.63
5986.40,490.35,257.03,222.47
5996.20,489.71,256.95,222.35
6005.30,489.11,256.91,222.26
6014.10,488.54,256.83,222.18
6022.70,487.99,256.76,222.13
6033.70,487.27,256.67,222.00
6048.00,486.34,256.54,221.79
6060.90,485.51,256.40,221.58
6072.40,484.76,256.30,221.34
6084.90,483.96,256.21,221.13
6097.50,483.15,256.10,221.01
6109.80,482.35,255.99,220.89
6123.60,481.46,255.86,220.63
6136.80,480.62,255.74,220.16
6149.60,479.79,255.64,219.61
6163.00,478.94,255.54,219.19
6174.10,478.23,255.45,218.78
6182.30,477.70,255.38,218.39
6190.40,477.19,255.31,218.18
6200.30,476.55,255.24,217.79
6212.80,475.76,255.16,216.81
6226.70,474.88,255.08,215.63
6241.70,473.92,255.06,215.36
6257.90,472.89,255.00,216.41
6273.20,471.92,254.86,217.47
6287.30,471.03,254.73,218.18
6300.80,470.18,254.60,218.70
6314.20,469.33,254.49,219.16
6329.00,468.41,254.37,219.53
6343.50,467.49,254.26,219.30
6355.10,466.76,254.18,218.88
6367.10,466.01,254.09,219.36
6380.30,465.19,253.99,219.92
6394.20,464.32,253.88,219.95
6407.30,463.50,253.77,219.84
6417.30,462.87,253.67,219.76
6426.60,462.29,253.59,219.71
6436.50,461.68,253.52,219.65
6446.00,461.09,253.45,219.57
6457.40,460.38,253.35,219.48
6470.50,459.57,253.22,219.42
6483.90,458.74,253.09,219.41
6498.40,457.84,252.94,219.45
6513.50,456.90,252.80,219.46
6529.30,455.93,252.65,219.44
6543.40,455.06,252.52,219.41
6556.70,454.24,252.39,219.37
6571.10,453.36,252.25,219.35
6586.30,452.43,252.10,219.32
6600.70,451.55,251.96,219.28
6613.20,450.78,251.87,219.24
6625.70,450.02,251.77,219.17
6640.10,449.14,251.63,219.08
6654.00,448.29,251.50,219.01
6667.30,447.48,251.38,218.98
6681.90,446.60,251.26,219.05
6696.70,445.70,251.13,219.05
6711.20,444.82,251.01,218.93
6725.20,443.97,250.89,218.78
6738.10,443.19,250.76,218.62
6751.00,442.42,250.65,218.46
6764.30,441.61,250.57,218.23
6778.20,440.78,250.50,217.91
6792.60,439.91,250.42,217.61
6808.00,438.99,250.31,217.17
6823.00,438.09,250.21,216.71
6836.70,437.27,250.12,216.53
6849.70,436.50,250.00,216.59
6862.60,435.72,249.88,216.70
6876.00,434.93,249.77,216.79
6889.40,434.14,249.67,216.89
6902.70,433.34,249.54,216.92
6916.50,432.52,249.42,217.07
6930.00,431.73,249.32,217.59
6942.50,430.99,249.21,218.00
6954.10,430.30,249.12,217.83
6966.00,429.60,249.04,217.24
6978.20,428.88,248.93,217.17
6990.70,428.14,248.81,217.76
7004.30,427.35,248.72,218.45
7018.10,426.54,248.60,218.79
7031.10,425.78,248.50,219.04
7043.90,425.03,248.40,219.46
7056.40,424.30,248.29,219.56
7070.50,423.48,248.17,219.27
7085.00,422.63,248.06,217.93
7098.00,421.88,247.97,216.10
7110.70,421.14,247.86,215.02
7124.60,420.33,247.73,215.12
7139.40,419.47,247.61,215.87
7155.60,418.54,247.49,216.54
7168.70,417.78,247.38,216.66
7178.30,417.23,247.32,216.43
7187.50,416.70,247.22,216.14
7197.30,416.13,247.12,215.88
7208.50,415.49,247.02,215.63
7220.70,414.79,246.89,215.52
7234.00,414.03,246.74,215.75
7248.40,413.20,246.62,216.35
7262.90,412.37,246.51,217.24
7278.20,411.50,246.40,217.84
7292.70,410.67,246.32,217.48
7303.20,410.08,246.26,216.78
7312.10,409.57,246.19,216.39
7322.90,408.95,246.11,216.30
7335.10,408.26,245.98,216.22
7349.10,407.47,245.85,216.01
7363.20,406.67,245.71,215.70
7376.20,405.94,245.59,215.42
7387.90,405.28,245.49,215.20
7399.80,404.60,245.39,214.88
7412.60,403.89,245.29,214.52
7425.10,403.18,245.19,214.33
7437.70,402.47,245.12,214.32
7451.40,401.71,245.05,214.31
7465.40,400.93,244.96,214.27
7479.10,400.16,244.85,214.18
7492.80,399.40,244.76,213.80
7506.00,398.66,244.66,213.37
7518.60,397.96,244.57,213.12
7531.00,397.27,244.49,212.99
7542.20,396.65,244.41,212.95
7553.30,396.03,244.33,212.81
7565.50,395.36,244.24,212.64
7577.30,394.70,244.18,212.46
7589.50,394.03,244.10,212.23
7602.60,393.31,243.98,211.93
7616.70,392.53,243.91,211.58
7632.80,391.65,243.78,211.16
7649.60,390.73,243.65,210.64
7665.20,389.88,243.56,210.08
7679.80,389.08,243.46,209.56
7694.20,388.29,243.35,208.90
7707.10,387.59,243.28,208.18
7717.30,387.04,243.21,207.74
7725.30,386.60,243.15,207.49
7733.50,386.16,243.10,207.24
7742.30,385.68,243.04,206.94
7751.70,385.17,242.93,206.63
7761.50,384.64,242.86,206.49
7770.70,384.14,242.80,206.44
7779.80,383.65,242.70,206.34
7789.70,383.11,242.62,206.33
7799.90,382.57,242.56,206.39
7809.70,382.04,242.46,206.38
7820.70,381.45,242.36,206.32
7833.90,380.74,242.27,206.28
